# TEMP	<E>	sigma_E	Cv	F(T)	S(T)
10.887610		-2123.831622	50.477665	21.494799	-1442.198801	-62.606285
13.458172		-2058.359939	72.717120	29.194510	-1288.054720	-57.236987
16.028734		-1976.120993	94.218371	34.551964	-1148.104894	-51.658234
18.599296		-1880.030015	118.503420	40.594646	-1022.431813	-46.109175
21.169858		-1765.439203	147.771282	48.724141	-911.239803	-40.349794
23.740420		-1631.809041	174.612487	54.097077	-815.177817	-34.398348
26.310982		-1494.915273	188.024137	51.068500	-733.983781	-28.920680
28.881544		-1373.223835	190.302264	43.415729	-665.563284	-24.502172
31.452106		-1270.952333	189.956696	36.476214	-607.133452	-21.105706
34.022668		-1183.990970	190.881102	31.476696	-556.427892	-18.445440
36.593230		-1107.924575	193.230225	27.883587	-511.874567	-16.288532
39.163792		-1039.948331	196.228378	25.104650	-472.379159	-14.492192
41.734354		-978.459990	199.264157	22.796648	-437.133670	-12.970761
44.304915		-922.487715	202.038009	20.795163	-405.507338	-11.668691
46.875477		-871.351858	204.462267	19.025450	-376.989791	-10.546283
49.446039		-824.509242	206.553017	17.450186	-351.159941	-9.573048
52.016601		-781.492224	208.362126	16.045513	-327.666746	-8.724628
54.587163		-741.887813	209.944074	14.791976	-306.215671	-7.981220
57.157725		-705.330526	211.343723	13.671899	-286.558303	-7.326608
59.728287		-671.498510	212.594290	12.669021	-268.484075	-6.747463
62.298849		-640.109721	213.719242	11.768665	-251.813563	-6.232798
64.869411		-610.917655	214.735072	10.957868	-236.393075	-5.773516
67.439973		-583.706917	215.653732	10.225374	-222.090263	-5.362052
70.010535		-558.288977	216.484402	9.561509	-208.790574	-4.992083
72.581097		-534.498333	217.234639	8.958001	-196.394370	-4.658292
75.151659		-512.189154	217.911066	8.407782	-184.814587	-4.356185
77.722221		-491.232433	218.519741	7.904801	-173.974821	-4.081942
80.292783		-471.513589	219.066340	7.443861	-163.807752	-3.832298
82.863345		-452.930457	219.556224	7.020476	-154.253841	-3.604448
85.433907		-435.391619	219.994465	6.630755	-145.260245	-3.395975
88.004469		-418.814998	220.385833	6.271305	-136.779916	-3.204781
90.575031		-403.126683	220.734790	5.939154	-128.770829	-3.029045
93.145593		-388.259928	221.045478	5.631689	-121.195345	-2.867174
95.716154		-374.154308	221.321719	5.346599	-114.019655	-2.717772
98.286716		-360.754992	221.567014	5.081835	-107.213315	-2.579613
100.857278		-348.012116	221.784559	4.835575	-100.748842	-2.451616
103.427840		-335.880245	221.977253	4.606192	-94.601371	-2.332823
105.998402		-324.317903	222.147718	4.392230	-88.748351	-2.222388
108.568964		-313.287156	222.298319	4.192383	-83.169288	-2.119555
111.139526		-302.753256	222.431180	4.005477	-77.845521	-2.023652
113.710088		-292.684323	222.548208	3.830454	-72.760020	-1.934079
116.280650		-283.051059	222.651110	3.666358	-67.897219	-1.850298
118.851212		-273.826503	222.741413	3.512325	-63.242862	-1.771826
121.421774		-264.985810	222.820482	3.367573	-58.783868	-1.698229
123.992336		-256.506049	222.889535	3.231392	-54.508217	-1.629115
126.562898		-248.366033	222.949657	3.103136	-50.404845	-1.564133
129.133460		-240.546158	223.001819	2.982217	-46.463551	-1.502961
131.704022		-233.028260	223.046886	2.868100	-42.674917	-1.445312
134.274584		-225.795493	223.085627	2.760295	-39.030234	-1.390920
136.845146		-218.832214	223.118731	2.658357	-35.521436	-1.339549
139.415708		-212.123877	223.146810	2.561875	-32.141046	-1.290980
141.986270		-205.656943	223.170411	2.470475	-28.882120	-1.245014
144.556832		-199.418798	223.190022	2.383814	-25.738203	-1.201469
147.127393		-193.397674	223.206079	2.301574	-22.703285	-1.160181
149.697955		-187.582581	223.218970	2.223466	-19.771767	-1.120996
152.268517		-181.963250	223.229044	2.149221	-16.938423	-1.083775
154.839079		-176.530069	223.236609	2.078594	-14.198372	-1.048390
157.409641		-171.274037	223.241944	2.011356	-11.547050	-1.014722
159.980203		-166.186715	223.245297	1.947297	-8.980184	-0.982662
162.550765		-161.260186	223.246889	1.886222	-6.493769	-0.952111
165.121327		-156.487012	223.246919	1.827951	-4.084049	-0.922976
167.691889		-151.860203	223.245565	1.772318	-1.747498	-0.895170
170.262451		-147.373181	223.242987	1.719166	0.519201	-0.868614
172.833013		-143.019753	223.239325	1.668353	2.719164	-0.843235
175.403575		-138.794082	223.234710	1.619745	4.855328	-0.818965
177.974137		-134.690663	223.229254	1.573216	6.930460	-0.795740
180.544699		-130.704299	223.223062	1.528652	8.947170	-0.773501
183.115261		-126.830083	223.216224	1.485944	10.907921	-0.752193
185.685823		-123.063373	223.208823	1.444991	12.815041	-0.731765
188.256385		-119.399781	223.200934	1.405700	14.670730	-0.712170
190.826947		-115.835148	223.192624	1.367982	16.477069	-0.693362
193.397509		-112.365540	223.183950	1.331754	18.236031	-0.675301
195.968070		-108.987222	223.174968	1.296941	19.949483	-0.657948
198.538632		-105.696654	223.165725	1.263470	21.619196	-0.641265
201.109194		-102.490475	223.156263	1.231273	23.246851	-0.625219
203.679756		-99.365491	223.146623	1.200286	24.834043	-0.609778
206.250318		-96.318667	223.136837	1.170451	26.382290	-0.594913
208.820880		-93.347118	223.126936	1.141711	27.893032	-0.580594
211.391442		-90.448097	223.116950	1.114013	29.367642	-0.566796
213.962004		-87.618988	223.106901	1.087308	30.807423	-0.553493
216.532566		-84.857299	223.096813	1.061550	32.213621	-0.540662
219.103128		-82.160657	223.086705	1.036693	33.587419	-0.528281
221.673690		-79.526794	223.076595	1.012697	34.929948	-0.516330
224.244252		-76.953550	223.066497	0.989523	36.242286	-0.504788
226.814814		-74.438859	223.056427	0.967134	37.525461	-0.493638
229.385376		-71.980752	223.046397	0.945494	38.780458	-0.482861
231.955938		-69.577341	223.036417	0.924572	40.008215	-0.472441
234.526500		-67.226827	223.026497	0.904334	41.209630	-0.462363
237.097062		-64.927484	223.016645	0.884753	42.385562	-0.452612
239.667624		-62.677662	223.006870	0.865800	43.536834	-0.443174
242.238186		-60.475782	222.997177	0.847449	44.664232	-0.434036
244.808748		-58.320328	222.987572	0.829674	45.768511	-0.425184
247.379309		-56.209851	222.978061	0.812452	46.850393	-0.416608
249.949871		-54.142960	222.968647	0.795759	47.910571	-0.408296
252.520433		-52.118318	222.959334	0.779576	48.949710	-0.400237
255.090995		-50.134646	222.950125	0.763880	49.968448	-0.392421
257.661557		-48.190714	222.941023	0.748653	50.967396	-0.384839
260.232119		-46.285341	222.932029	0.733877	51.947143	-0.377480
262.802681		-44.417392	222.923146	0.719533	52.908253	-0.370337
265.373243		-42.585776	222.914375	0.705605	53.851270	-0.363402
267.943805		-40.789445	222.905716	0.692078	54.776716	-0.356665
270.514367		-39.027388	222.897171	0.678935	55.685093	-0.350120
273.084929		-37.298636	222.888740	0.666163	56.576884	-0.343759
275.655491		-35.602254	222.880423	0.653748	57.452555	-0.337576
278.226053		-33.937341	222.872219	0.641677	58.312553	-0.331565
280.796615		-32.303031	222.864130	0.629936	59.157311	-0.325717
283.367177		-30.698487	222.856154	0.618515	59.987243	-0.320029
285.937739		-29.122905	222.848291	0.607401	60.802751	-0.314494
288.508301		-27.575508	222.840540	0.596584	61.604221	-0.309106
291.078863		-26.055546	222.832901	0.586054	62.392027	-0.303861
293.649425		-24.562298	222.825373	0.575799	63.166527	-0.298754
296.219987		-23.095063	222.817954	0.565811	63.928070	-0.293779
298.790548		-21.653171	222.810643	0.556081	64.676990	-0.288932
301.361110		-20.235968	222.803440	0.546600	65.413611	-0.284209
303.931672		-18.842828	222.796344	0.537359	66.138247	-0.279606
306.502234		-17.473142	222.789352	0.528350	66.851198	-0.275118
309.072796		-16.126324	222.782464	0.519566	67.552759	-0.270742
311.643358		-14.801805	222.775679	0.510999	68.243211	-0.266475
314.213920		-13.499036	222.768994	0.502642	68.922827	-0.262311
316.784482		-12.217486	222.762410	0.494488	69.591872	-0.258249
319.355044		-10.956642	222.755923	0.486531	70.250603	-0.254285
321.925606		-9.716004	222.749534	0.478765	70.899265	-0.250416
324.496168		-8.495093	222.743240	0.471183	71.538100	-0.246638
327.066730		-7.293440	222.737040	0.463780	72.167340	-0.242950
329.637292		-6.110593	222.730933	0.456550	72.787209	-0.239347
332.207854		-4.946115	222.724917	0.449488	73.397925	-0.235828
334.778416		-3.799582	222.718990	0.442588	73.999701	-0.232390
337.348978		-2.670581	222.713152	0.435846	74.592740	-0.229031
339.919540		-1.558713	222.707401	0.429257	75.177242	-0.225747
342.490102		-0.463592	222.701735	0.422816	75.753399	-0.222538
345.060664		0.615158	222.696153	0.416519	76.321398	-0.219400
347.631226		1.677902	222.690654	0.410361	76.881420	-0.216331
350.201787		2.724993	222.685236	0.404339	77.433642	-0.213330
352.772349		3.756774	222.679899	0.398449	77.978234	-0.210395
355.342911		4.773579	222.674639	0.392687	78.515362	-0.207523
357.913473		5.775731	222.669457	0.387048	79.045187	-0.204713
360.484035		6.763546	222.664351	0.381531	79.567867	-0.201963
363.054597		7.737328	222.659319	0.376130	80.083552	-0.199271
365.625159		8.697374	222.654361	0.370843	80.592392	-0.196636
368.195721		9.643973	222.649474	0.365667	81.094529	-0.194056
370.766283		10.577406	222.644658	0.360599	81.590103	-0.191530
373.336845		11.497945	222.639912	0.355635	82.079251	-0.189055
375.907407		12.405856	222.635234	0.350773	82.562103	-0.186632
378.477969		13.301397	222.630623	0.346010	83.038790	-0.184257
381.048531		14.184819	222.626079	0.341343	83.509435	-0.181931
383.619093		15.056366	222.621598	0.336771	83.974161	-0.179652
386.189655		15.916276	222.617182	0.332289	84.433085	-0.177418
388.760217		16.764781	222.612828	0.327896	84.886324	-0.175228
391.330779		17.602107	222.608535	0.323590	85.333989	-0.173081
393.901341		18.428472	222.604303	0.319369	85.776190	-0.170976
396.471903		19.244090	222.600129	0.315229	86.213034	-0.168912
399.042464		20.049171	222.596014	0.311169	86.644623	-0.166888
401.613026		20.843916	222.591957	0.307187	87.071059	-0.164903
404.183588		21.628524	222.587955	0.303282	87.492442	-0.162955
406.754150		22.403188	222.584009	0.299450	87.908865	-0.161045
409.324712		23.168094	222.580116	0.295690	88.320424	-0.159170
411.895274		23.923428	222.576277	0.292001	88.727209	-0.157331
414.465836		24.669366	222.572490	0.288380	89.129310	-0.155525
417.036398		25.406083	222.568755	0.284827	89.526813	-0.153753
419.606960		26.133750	222.565070	0.281338	89.919803	-0.152014
422.177522		26.852532	222.561435	0.277913	90.308362	-0.150306
424.748084		27.562591	222.557848	0.274551	90.692571	-0.148629
427.318646		28.264085	222.554310	0.271249	91.072509	-0.146983
429.889208		28.957167	222.550818	0.268006	91.448253	-0.145366
432.459770		29.641989	222.547373	0.264822	91.819876	-0.143777
435.030332		30.318697	222.543973	0.261693	92.187453	-0.142217
437.600894		30.987434	222.540618	0.258620	92.551056	-0.140684
440.171456		31.648341	222.537307	0.255601	92.910752	-0.139179
442.742018		32.301553	222.534038	0.252634	93.266612	-0.137699
445.312580		32.947206	222.530813	0.249718	93.618701	-0.136245
447.883142		33.585429	222.527628	0.246853	93.967085	-0.134816
450.453703		34.216350	222.524485	0.244037	94.311826	-0.133411
453.024265		34.840094	222.521382	0.241268	94.652987	-0.132030
455.594827		35.456781	222.518319	0.238547	94.990630	-0.130673
458.165389		36.066532	222.515295	0.235871	95.324812	-0.129338
460.735951		36.669463	222.512308	0.233240	95.655592	-0.128026
463.306513		37.265688	222.509360	0.230653	95.983028	-0.126735
465.877075		37.855318	222.506448	0.228109	96.307173	-0.125466
468.447637		38.438461	222.503573	0.225607	96.628083	-0.124218
471.018199		39.015224	222.500733	0.223145	96.945811	-0.122990
473.588761		39.585712	222.497929	0.220724	97.260408	-0.121782
476.159323		40.150026	222.495159	0.218342	97.571925	-0.120594
478.729885		40.708266	222.492423	0.215998	97.880412	-0.119425
481.300447		41.260530	222.489721	0.213692	98.185918	-0.118274
483.871009		41.806913	222.487051	0.211422	98.488490	-0.117142
486.441571		42.347508	222.484414	0.209189	98.788174	-0.116028
489.012133		42.882407	222.481809	0.206990	99.085017	-0.114931
491.582695		43.411700	222.479235	0.204826	99.379063	-0.113851
494.153257		43.935473	222.476692	0.202696	99.670356	-0.112789
496.723819		44.453814	222.474179	0.200599	99.958938	-0.111742
499.294381		44.966807	222.471696	0.198535	100.244851	-0.110712
501.864942		45.474533	222.469242	0.196502	100.528137	-0.109698
504.435504		45.977073	222.466817	0.194500	100.808836	-0.108699
507.006066		46.474506	222.464420	0.192528	101.086986	-0.107716
509.576628		46.966911	222.462052	0.190587	101.362628	-0.106747
512.147190		47.454362	222.459710	0.188674	101.635798	-0.105793
514.717752		47.936934	222.457396	0.186791	101.906534	-0.104853
517.288314		48.414700	222.455109	0.184935	102.174871	-0.103927
519.858876		48.887732	222.452848	0.183107	102.440846	-0.103015
522.429438		49.356099	222.450612	0.181306	102.704494	-0.102116
